# freq, energy, cw_energy, ccw_energy
1.100900000000000522e-04 1.106808344569685971e+02 1.106780949679715889e+02 2.739488997004547923e-03
1.109539291698056378e-04 8.123330002267830707e+01 8.122689008200762828e+01 6.409940670679598919e-03
1.118246380072509177e-04 6.639465942162171075e+01 6.638379785081627915e+01 1.086157080543942964e-02
1.127021797156478193e-04 5.699477493015912444e+01 5.697888620606745036e+01 1.588872409167471633e-02
1.135866079158205812e-04 5.032576888424230788e+01 5.030440937724078054e+01 2.135950700153062612e-02
1.144779766493818460e-04 4.526075037873038553e+01 4.523357148524974747e+01 2.717889348063884380e-02
1.153763403820344356e-04 4.123489194766322896e+01 4.120161809136849485e+01 3.327385629473494921e-02
1.162817540069000687e-04 3.792927232713429220e+01 3.788968638551019552e+01 3.958594162409981299e-02
1.171942728478731909e-04 3.514813775492491033e+01 3.510207070843933508e+01 4.606704648557417847e-02
1.181139526630011106e-04 3.276364777314779531e+01 3.271097097840174683e+01 5.267679474605458517e-02
1.190408496478916739e-04 3.068821000785401054e+01 3.062882921073009612e+01 5.938079712391503007e-02
1.199750204391467154e-04 2.885946649250625740e+01 2.879331705402555386e+01 6.614943848070510557e-02
1.209165221178223442e-04 2.723161305578538816e+01 2.715865605717795717e+01 7.295699860743287690e-02
1.218654122129175403e-04 2.577011655873719320e+01 2.569033556469792146e+01 7.978099403927274569e-02
1.228217487048889752e-04 2.444836091465485595e+01 2.436175924257224423e+01 8.660167208260947935e-02
1.237855900291934806e-04 2.324544046458042956e+01 2.315203885150719287e+01 9.340161307323777140e-02
1.247569950798594501e-04 2.214466340218275775e+01 2.204449799047089442e+01 1.001654117118620235e-01
1.257360232130849546e-04 2.113250975787089203e+01 2.102563034032930034e+01 1.068794175415927611e-01
1.267227342508643845e-04 2.019788905212248764e+01 2.008435753155705683e+01 1.135315205654298665e-01
1.277171884846444068e-04 1.933160064930024902e+01 1.921148967736377244e+01 1.201109719364755885e-01
1.287194466790077046e-04 1.852593436792570714e+01 1.839932613559355090e+01 1.266082323321573444e-01
1.297295700753854750e-04 1.777437011932911659e+01 1.764135527683943039e+01 1.330148424896885062e-01
1.307476203958002575e-04 1.707134874149021186e+01 1.693202542978344383e+01 1.393233117067676219e-01
1.317736598466369793e-04 1.641209485867143059e+01 1.626656783759906943e+01 1.455270210723602353e-01
1.328077511224435713e-04 1.579247832418486119e+01 1.564085818528496041e+01 1.516201388999006694e-01
1.338499574097626744e-04 1.520890466405875863e+01 1.505130711769474772e+01 1.575975463640112151e-01
1.349003423909920769e-04 1.465822758854616481e+01 1.449477281680374219e+01 1.634547717424207347e-01
1.359589702482755637e-04 1.413767848623195000e+01 1.396849055425983721e+01 1.691879319721132924e-01
1.370259056674254781e-04 1.364480912374208899e+01 1.347001544327488354e+01 1.747936804672065858e-01
1.381012138418748561e-04 1.317744471310234644e+01 1.299717555276929914e+01 1.802691603330484060e-01
1.391849604766605408e-04 1.273364519142231543e+01 1.254803322916319530e+01 1.856119622591209661e-01
1.402772117924387424e-04 1.231167305967721326e+01 1.212085297318554034e+01 1.908200864916730355e-01
1.413780345295311176e-04 1.190996650071722662e+01 1.171407459233489945e+01 1.958919083823280061e-01
1.424874959520022375e-04 1.152711677709360494e+01 1.132629063000723235e+01 2.008261470863705045e-01
1.436056638517705026e-04 1.116184912197618040e+01 1.095622728492840992e+01 2.056218370477703727e-01
1.447326065527502017e-04 1.081300649916550149e+01 1.060272819720532844e+01 2.102783019601740522e-01
1.458683929150257717e-04 1.047953573374544867e+01 1.026474060280906997e+01 2.147951309363779482e-01
1.470130923390602093e-04 1.016047561253975573e+01 9.941303455884860085e+00 2.191721566548962274e-01
1.481667747699354405e-04 9.854946630002183738e+00 9.631537194719683725e+00 2.234094352825008734e-01
1.493295107016255131e-04 9.562142115481954363e+00 9.334634887484785537e+00 2.275072279971680211e-01
1.505013711813051351e-04 9.281320525692304813e+00 9.049854541734779545e+00 2.314659839575258782e-01
1.516824278136903053e-04 9.011798724468746968e+00 8.776512399885415761e+00 2.352863245833301253e-01
1.528727527654132317e-04 8.752946102646623316e+00 8.513977073619319214e+00 2.389690290273046025e-01
1.540724187694328385e-04 8.504179415734109071e+00 8.261664395001851346e+00 2.425150207322571139e-01
1.552814991294785587e-04 8.264958237243105188e+00 8.019032882264017559e+00 2.459253549790877680e-01
1.565000677245289293e-04 8.034780942022818451e+00 7.785579734681341790e+00 2.492012073414760498e-01
1.577281990133269141e-04 7.813181147465030563e+00 7.560837284493158172e+00 2.523438629718717241e-01
1.589659680389289716e-04 7.599724551598907141e+00 7.344369844947796544e+00 2.553547066511115404e-01
1.602134504332900920e-04 7.394006116321611977e+00 7.135770902780850022e+00 2.582352135407616767e-01
1.614707224218859681e-04 7.195647551684509757e+00 6.934660611101289618e+00 2.609869405832206390e-01
1.627378608283703480e-04 7.004295063560439516e+00 6.740683545060589310e+00 2.636115184998502614e-01
1.640149430792686280e-04 6.819617332384154906e+00 6.553506688042111783e+00 2.661106443420439005e-01
1.653020472087098254e-04 6.641303695172076083e+00 6.372817620617825973e+00 2.684860745542506089e-01
1.665992518631943581e-04 6.469062506838177740e+00 6.198322888326552871e+00 2.707396185116245357e-01
1.679066363063990114e-04 6.302619660049001205e+00 6.029746527550768675e+00 2.728731324982324735e-01
1.692242804240212889e-04 6.141717245602364983e+00 5.866828731507692574e+00 2.748885140946728534e-01
1.705522647286601386e-04 5.986112337651989357e+00 5.709324640705427001e+00 2.767876969465625780e-01
1.718906703647351132e-04 5.835575890097331353e+00 5.557003244209628434e+00 2.785726458877026968e-01
1.732395791134455382e-04 5.689891732171258987e+00 5.409646379777406366e+00 2.802453523938523428e-01
1.745990733977671662e-04 5.548855652731419674e+00 5.267047822386485834e+00 2.818078303449332855e-01
1.759692362874879163e-04 5.412274564030854940e+00 5.129012451955622609e+00 2.832621120752317756e-01
1.773501515042848133e-04 5.279965736840993351e+00 4.995355492148276788e+00 2.846102446927160079e-01
1.787419034268390098e-04 5.151756099752231144e+00 4.865901813102222917e+00 2.858542866500080604e-01
1.801445770959918995e-04 5.027481596303166711e+00 4.740485291752317920e+00 2.869963045508486243e-01
1.815582582199406407e-04 4.906986594309705296e+00 4.618948224132647162e+00 2.880383701770578009e-01
1.829830331794764795e-04 4.790123342393110661e+00 4.501140784671025408e+00 2.889825577220851427e-01
1.844189890332622391e-04 4.676751469256083205e+00 4.386920528037877354e+00 2.898309412182057399e-01
1.858662135231513345e-04 4.566737521737254113e+00 4.276151929591914147e+00 2.905855921453396884e-01
1.873247950795503178e-04 4.459954538097523624e+00 4.168705960887245432e+00 2.912485772102779147e-01
1.887948228268216202e-04 4.356281653364802331e+00 4.064459697078928180e+00 2.918219562858741511e-01
1.902763865887288760e-04 4.255603733891489604e+00 3.963295953391046123e+00 2.923077805004436480e-01
1.917695768939265094e-04 4.157811038569577455e+00 3.865102948101311053e+00 2.927080904682661799e-01
1.932744849814908459e-04 4.062798904405425127e+00 3.769773989752750243e+00 2.930249146526750503e-01
1.947912028064945923e-04 3.970467454383828976e+00 3.677207186530063510e+00 2.932602678537649110e-01
1.963198230456266358e-04 3.880721325753486717e+00 3.587305175940227464e+00 2.934161498132591417e-01
1.978604391028544252e-04 3.793469417046380965e+00 3.499974873116838303e+00 2.934945439295426617e-01
1.994131451151307237e-04 3.708624652303890379e+00 3.415127236227585072e+00 2.934974160763050843e-01
2.009780359581467648e-04 3.626103761125881508e+00 3.332677047607238485e+00 2.934267135186428010e-01
2.025552072521289663e-04 3.545827073287379783e+00 3.252542709366540663e+00 2.932843639208388975e-01
2.041447553676810724e-04 3.467718326782073923e+00 3.174646052341677738e+00 2.930722744403962410e-01
2.057467774316738384e-04 3.391704488254786209e+00 3.098912157351569885e+00 2.927923309032160470e-01
2.073613713331793837e-04 3.317715584877837021e+00 3.025269187822712258e+00 2.924463970551247072e-01
2.089886357294517053e-04 3.245684546809133320e+00 2.953648232923906658e+00 2.920363138852268281e-01
2.106286700519564414e-04 3.175547059444705944e+00 2.883983160427873838e+00 2.915638990168321620e-01
2.122815745124457371e-04 3.107241424746294278e+00 2.816210478584348031e+00 2.910309461619461913e-01
2.139474501090808428e-04 3.040708430985266109e+00 2.750269206349718054e+00 2.904392246355479434e-01
2.156263986326048565e-04 2.975891230299406054e+00 2.686100751373315276e+00 2.897904789260911662e-01
2.173185226725617885e-04 2.912735223509236082e+00 2.623648795190366201e+00 2.890864283188697148e-01
2.190239256235644431e-04 2.851187951685600908e+00 2.562859185116523886e+00 2.883287665690770218e-01
2.207427116916135551e-04 2.791198994001309330e+00 2.503679832379746450e+00 2.875191616215628243e-01
2.224749859004644420e-04 2.732719871437225834e+00 2.446060616062758264e+00 2.866592553744677918e-01
2.242208540980436646e-04 2.675703955946851842e+00 2.389953292462793311e+00 2.857506634840584203e-01
2.259804229629180548e-04 2.620106384714473879e+00 2.335311409506226621e+00 2.847949752082473140e-01
2.277538000108124514e-04 2.565883979170224816e+00 2.282090225883815382e+00 2.837937532864093781e-01
2.295410936011786098e-04 2.512995168451017669e+00 2.230246634597771838e+00 2.827485338532456649e-01
2.313424129438176446e-04 2.461399917019755801e+00 2.179739090635195886e+00 2.816608263845599147e-01
2.331578681055525889e-04 2.411059656176905541e+00 2.130527542503969585e+00 2.805321136729361786e-01
2.349875700169529690e-04 2.361937219218028794e+00 2.082573367386615804e+00 2.793638518314129904e-01
2.368316304791146453e-04 2.313996780008823251e+00 2.035839309685478327e+00 2.781574703233447576e-01
2.386901621704903408e-04 2.267203794766023073e+00 1.990289422749268677e+00 2.769143720167544509e-01
2.405632786537741346e-04 2.221524946847380111e+00 1.945889013585825111e+00 2.756359332615552771e-01
2.424510943828418470e-04 2.176928094368022482e+00 1.902604590379903593e+00 2.743235039881188331e-01
2.443537247097439264e-04 2.133382220473338808e+00 1.860403812647597688e+00 2.729784078257411206e-01
2.462712858917531430e-04 2.090857386110275939e+00 1.819255443870633648e+00 2.716019422396424021e-01
2.482038950984695827e-04 2.049324685149748415e+00 1.779129306464548366e+00 2.701953786852000494e-01
2.501516704189797147e-04 2.008756201723040036e+00 1.739996238944846674e+00 2.687599627781931955e-01
2.521147308690709988e-04 1.969124969644199918e+00 1.701828055164302578e+00 2.672969144798972851e-01
2.540931963985057973e-04 1.930404933798947731e+00 1.664597505503018660e+00 2.658074282959291268e-01
2.560871878983498771e-04 1.892570913388648801e+00 1.628278239900845525e+00 2.642926734878033868e-01
2.580968272083586997e-04 1.855598566925085624e+00 1.592844772628866590e+00 2.627537942962193118e-01
2.601222371244234504e-04 1.819464358878502219e+00 1.558272448703362789e+00 2.611919101751393191e-01
2.621635414060739886e-04 1.784145527887796900e+00 1.524537411852010527e+00 2.596081160357864293e-01
2.642208647840396402e-04 1.749620056447417804e+00 1.491616573947696978e+00 2.580034824997211040e-01
2.662943329678727649e-04 1.715866641990876129e+00 1.459487585830667511e+00 2.563790561602086182e-01
2.683840726536289734e-04 1.682864669295961457e+00 1.428128809444827674e+00 2.547358598511337835e-01
2.704902115316077890e-04 1.650594184141219500e+00 1.397519291218464410e+00 2.530748929227550903e-01
2.726128782941569513e-04 1.619035868147587376e+00 1.367638736623960183e+00 2.513971315236273596e-01
2.747522026435348882e-04 1.588171014743243292e+00 1.338467485855174166e+00 2.497035288880691262e-01
2.769083152998350408e-04 1.557981506193306442e+00 1.309986490564734041e+00 2.479950156285723184e-01
2.790813480089752953e-04 1.528449791639527877e+00 1.282177291606937608e+00 2.462725000325902969e-01
2.812714335507469909e-04 1.499558866098493315e+00 1.255021997735316974e+00 2.445368683631762574e-01
2.834787057469276262e-04 1.471292250369732324e+00 1.228503265206767114e+00 2.427889851629652929e-01
2.857032994694592119e-04 1.443633971808009120e+00 1.202604278246983016e+00 2.410296935610259927e-01
2.879453506486889130e-04 1.416568545916753186e+00 1.177308730334619025e+00 2.392598155821341610e-01
2.902049962816737657e-04 1.390080958722021309e+00 1.152600806263974098e+00 2.374801524580471557e-01
2.924823744405533749e-04 1.364156649888632833e+00 1.128465164948255550e+00 2.356914849403772272e-01
2.947776242809859826e-04 1.338781496542397642e+00 1.104886922927706960e+00 2.338945736146907095e-01
2.970908860506502394e-04 1.313941797764297092e+00 1.081851638548815497e+00 2.320901592154816506e-01
2.994223010978165817e-04 1.289624259724331479e+00 1.059345296782651547e+00 2.302789629416799877e-01
3.017720118799834439e-04 1.265815981424651460e+00 1.037354294652262698e+00 2.284616867723887057e-01
3.041401619725806913e-04 1.242504441023136286e+00 1.015865427240583818e+00 2.266390137825524120e-01
3.065268960777447192e-04 1.219677482710146643e+00 9.948658742518694531e-01 2.248116084582771346e-01
3.089323600331590368e-04 1.197323304112751119e+00 9.743431871012018242e-01 2.229801170115492392e-01
3.113567008209647291e-04 1.175430444201975622e+00 9.542852765078710942e-01 2.211451676941044997e-01
3.138000665767432884e-04 1.153987771679948482e+00 9.346804005697301188e-01 2.193073711102182244e-01
3.162626065985671008e-04 1.132984473825106919e+00 9.155171532968987558e-01 2.174673205282083022e-01
3.187444713561226272e-04 1.112410045774651746e+00 8.967844535842063314e-01 2.156255921904454975e-01
3.212458124999033001e-04 1.092254280224610019e+00 8.784715346029213778e-01 2.137827456216886690e-01
3.237667828704779340e-04 1.072507257528794167e+00 8.605679335932272522e-01 2.119393239355669423e-01
3.263075365078287418e-04 1.053159336178984828e+00 8.430634820399356411e-01 2.100958541390491874e-01
3.288682286607628601e-04 1.034201143649500443e+00 8.259482962147495222e-01 2.082528474347510039e-01
3.314490157964002570e-04 1.015623567590151266e+00 8.092127680692181579e-01 2.064107995209331914e-01
3.340500556097339012e-04 9.974177473524481474e-01 7.928475564633796768e-01 2.045701908890686094e-01
3.366715070332639828e-04 9.795750658346253914e-01 7.768435787157713657e-01 2.027314871188541645e-01
3.393135302467115513e-04 9.620871416317287039e-01 7.611920024611752433e-01 2.008951391705534051e-01
3.419762866868049584e-04 9.449458214777877174e-01 7.458842378032135567e-01 1.990615836745742162e-01
3.446599390571431160e-04 9.281431729676232756e-01 7.309119297494411915e-01 1.972312432181820563e-01
3.473646513381394192e-04 9.116714775464745957e-01 7.162669509172108206e-01 1.954045266292637750e-01
3.500905887970403164e-04 8.955232237562351649e-01 7.019413944991701459e-01 1.935818292570650745e-01
3.528379179980229720e-04 8.796911007275705074e-01 6.879275674777415306e-01 1.917635332498290046e-01
3.556068068123745154e-04 8.641679919076994398e-01 6.742179840784311429e-01 1.899500078292683247e-01
3.583974244287490272e-04 8.489469690141516756e-01 6.608053594523347618e-01 1.881416095618168305e-01
3.612099413635041058e-04 8.340212862052209797e-01 6.476826035786141800e-01 1.863386826266068552e-01
3.640445294711223815e-04 8.193843744582550714e-01 6.348428153781331407e-01 1.845415590801219585e-01
3.669013619547112012e-04 8.050298361473876563e-01 6.222792770298987142e-01 1.827505591174889421e-01
3.697806133765848755e-04 7.909514398126586965e-01 6.099854484822869738e-01 1.809659913303717227e-01
3.726824596689332276e-04 7.771431151128231907e-01 5.979549621513909896e-01 1.791881529614321455e-01
3.756070781445706996e-04 7.635989479545580716e-01 5.861816177992217325e-01 1.774173301553363113e-01
3.785546475077693207e-04 7.503131757910536104e-01 5.746593775847708141e-01 1.756537982062828795e-01
3.815253478651808514e-04 7.372801830832813597e-01 5.633823612812506321e-01 1.738978218020307553e-01
3.845193607368403515e-04 7.244944969175982630e-01 5.523448416531778760e-01 1.721496552644204703e-01
3.875368690672568637e-04 7.119507827735462868e-01 5.415412399871752935e-01 1.704095427863710210e-01
3.905780572365940314e-04 6.996438404360170171e-01 5.309661217706680425e-01 1.686777186653489191e-01
3.936431110719354476e-04 6.875686000462171155e-01 5.206141925129111891e-01 1.669544075333059263e-01
3.967322178586378230e-04 6.757201182860889110e-01 5.104802937030038512e-01 1.652398245830850321e-01
3.998455663517773971e-04 6.640935746910608950e-01 5.005593988997674160e-01 1.635341757912934790e-01
4.029833467876824333e-04 6.526842680862739998e-01 4.908466099486200607e-01 1.618376581376538836e-01
4.061457508955555957e-04 6.414876131415897520e-01 4.813371533207519981e-01 1.601504598208377816e-01
4.093329719091922769e-04 6.304991370408856710e-01 4.720263765700957181e-01 1.584727604707898974e-01
4.125452045787863131e-04 6.197144762613793212e-01 4.629097449038189205e-01 1.568047313575604007e-01
4.157826451828286691e-04 6.091293734588608677e-01 4.539828378622031146e-01 1.551465355966577253e-01
4.190454915401033761e-04 5.987396744548749705e-01 4.452413461039397835e-01 1.534983283509351315e-01
4.223339430217735134e-04 5.885413253221210006e-01 4.366810682930848952e-01 1.518602570290361053e-01
4.256482005635622195e-04 5.785303695644283817e-01 4.282979080840135788e-01 1.502324614804148029e-01
4.289884666780332872e-04 5.687029453878342800e-01 4.200878712008825899e-01 1.486150741869517178e-01
4.323549454669638626e-04 5.590552830594669453e-01 4.120470626082728405e-01 1.470082204511940216e-01
4.357478426338147752e-04 5.495837023510276032e-01 4.041716837697861830e-01 1.454120185812413923e-01
4.391673654963018625e-04 5.402846100638031279e-01 3.964580299915011485e-01 1.438265800723020071e-01
4.426137229990630292e-04 5.311544976322971623e-01 3.889024878473455460e-01 1.422520097849515885e-01
4.460871257264236974e-04 5.221899388036490564e-01 3.815015326835290987e-01 1.406884061201199021e-01
4.495877859152673170e-04 5.133875873901302400e-01 3.742517261992945876e-01 1.391358611908356802e-01
4.531159174680019354e-04 5.047441750921368708e-01 3.671497141013759791e-01 1.375944609907608918e-01
4.566717359656296041e-04 4.962565093891752599e-01 3.601922238296286771e-01 1.360642855595465828e-01
4.602554586809212787e-04 4.879214714964411614e-01 3.533760623514006771e-01 1.345454091450404566e-01
4.638673045916920064e-04 4.797360143847028136e-01 3.466981140223202584e-01 1.330379003623825274e-01
4.675074943941795480e-04 4.716971608612732791e-01 3.401553385112526806e-01 1.315418223500205985e-01
4.711762505165326110e-04 4.638020017099346859e-01 3.337447687872547863e-01 1.300572329226798440e-01
4.748737971324006740e-04 4.560476938877910391e-01 3.274635091664678255e-01 1.285841847213231581e-01
4.786003601746298994e-04 4.484314587770782401e-01 3.213087334169404952e-01 1.271227253601377172e-01
4.823561673490719113e-04 4.409505804900297754e-01 3.152776829194492980e-01 1.256728975705804219e-01
4.861414481484955196e-04 4.336024042250051225e-01 3.093676648824815190e-01 1.242347393425235758e-01
4.899564338666080555e-04 4.263843346721228889e-01 3.035760506095874778e-01 1.228082840625353833e-01
4.938013576121915793e-04 4.192938344667059281e-01 2.979002738173766596e-01 1.213935606493293240e-01
4.976764543233445264e-04 4.123284226889468718e-01 2.923378290025215875e-01 1.199905936864252842e-01
5.015819607818362185e-04 4.054856734082190606e-01 2.868862698561627234e-01 1.185994035520563372e-01
5.055181156275779814e-04 3.987632142705348492e-01 2.815432077241766251e-01 1.172200065463582241e-01
5.094851593732031706e-04 3.921587251277207087e-01 2.763063101118388154e-01 1.158524150158818655e-01
5.134833344187617965e-04 3.856699367069151840e-01 2.711732992314486723e-01 1.144966374754664562e-01
5.175128850665354973e-04 3.792946293190416207e-01 2.661419505915341710e-01 1.131526787275074497e-01
