# freq, energy, cw_energy, ccw_energy
1.100900000000000522e-04 1.428708779444534969e+02 1.428673417116445989e+02 3.536232808882364999e-03
1.110247655036131480e-04 1.028615730753863602e+02 1.028528629838813373e+02 8.710091505030105943e-03
1.119674680273618822e-04 8.337929629825457312e+01 8.336426157889815158e+01 1.503471935642214548e-02
1.129181749638581857e-04 7.121101934165290004e+01 7.118882747949555778e+01 2.219186215734106696e-02
1.138769542779389285e-04 6.264404123944844116e+01 6.261406073681104090e+01 2.998050263739991672e-02
1.148438745115254759e-04 5.616888074666709940e+01 5.613062372099665964e+01 3.825702567043547803e-02
1.158190047885227652e-04 5.103932225465911188e+01 5.099241052008938624e+01 4.691173456972291128e-02
1.168024148197618439e-04 4.683786813089584911e+01 4.678201084966288192e+01 5.585728123296924974e-02
1.177941749079824431e-04 4.330991701316457920e+01 4.324489487412811428e+01 6.502213903646425486e-02
1.187943559528598130e-04 4.028999452570978690e+01 4.021564795888350119e+01 7.434656682628403013e-02
1.198030294560723381e-04 3.766513801063305777e+01 3.758135806971689163e+01 8.377994091616634831e-02
1.208202675264135641e-04 3.535515797991614306e+01 3.526187908075814192e+01 9.327889915799771059e-02
1.218461428849474570e-04 3.330128578359845903e+01 3.319847978672320465e+01 1.028059968752590286e-01
1.228807288702063124e-04 3.145929438911687015e+01 3.134696568788739057e+01 1.123287012294799520e-01
1.239240994434345810e-04 2.979514618857299979e+01 2.967332757030514756e+01 1.218186182678518414e-01
1.249763291938753697e-04 2.828213806447196887e+01 2.815088717922851558e+01 1.312508852434525752e-01
1.260374933441036195e-04 2.689896994049350454e+01 2.675836625687830406e+01 1.406036836152007863e-01
1.271076677554027314e-04 2.562840283777322981e+01 2.547854499549172402e+01 1.498578422815062539e-01
1.281869289331887484e-04 2.445630460571187470e+01 2.429730809602472874e+01 1.589965096871463202e-01
1.292753540324788548e-04 2.337095731921915842e+01 2.320295243976162780e+01 1.680048794575318416e-01
1.303730208634073357e-04 2.236254539356154680e+01 2.218567543525825414e+01 1.768699583032917189e-01
1.314800078967885916e-04 2.142277108448617540e+01 2.123719071670297964e+01 1.855803677831930898e-01
1.325963942697260141e-04 2.054456143651188071e+01 2.035043526297719652e+01 1.941261735346832551e-01
1.337222597912703830e-04 1.972184197006459883e+01 1.951934323302034713e+01 2.024987370442541679e-01
1.348576849481243416e-04 1.894935980587909441e+01 1.873866921977271716e+01 2.106905861063742835e-01
1.360027509103972881e-04 1.822254391031751908e+01 1.800384860939333720e+01 2.186953009241829615e-01
1.371575395374072118e-04 1.753739356115698200e+01 1.731088614774255774e+01 2.265074134144262064e-01
1.383221333835331086e-04 1.689038851273857134e+01 1.665626619499197147e+01 2.341223177466003891e-01
1.394966157041171333e-04 1.627841602184381742e+01 1.603687983133482930e+01 2.415361905089880301e-01
1.406810704614154062e-04 1.569871110194479513e+01 1.544996518276602160e+01 2.487459191787736446e-01
1.418755823306014569e-04 1.514880724946062607e+01 1.489305821166179555e+01 2.557490377988305141e-01
1.430802367058185394e-04 1.462649552935938679e+01 1.436395186041552741e+01 2.625436689438571114e-01
1.442951197062853979e-04 1.412979038567626766e+01 1.386066191447244478e+01 2.691284712038226612e-01
1.455203181824516075e-04 1.365690090147838553e+01 1.338139830994774648e+01 2.755025915306387740e-01
1.467559197222077761e-04 1.320620650481314051e+01 1.292454088292250880e+01 2.816656218906309905e-01
1.480020126571458361e-04 1.277623632515508589e+01 1.248861876541012528e+01 2.876175597449605603e-01
1.492586860688743593e-04 1.236565156521356279e+01 1.207229279326728744e+01 2.933587719462748544e-01
1.505260297953871880e-04 1.197323037757499087e+01 1.167434041588000682e+01 2.988899616949819427e-01
1.518041344374850010e-04 1.159785483320832888e+01 1.129364269496345408e+01 3.042121382448748634e-01
1.530930913652532328e-04 1.123849964577044247e+01 1.092917305668349925e+01 3.093265890869416612e-01
1.543929927245929273e-04 1.089422237668607885e+01 1.057998752231272199e+01 3.142348543733565203e-01
1.557039314438093535e-04 1.056415489471550906e+01 1.024521619134353223e+01 3.189387033719761622e-01
1.570260012402540175e-04 1.024749590288013934e+01 9.924055790114268305e+00 3.234401127658703690e-01
1.583592966270257099e-04 9.943504377244144266e+00 9.615763130610817555e+00 3.277412466333268215e-01
1.597039129197260062e-04 9.651493787742174035e+00 9.319649349780423364e+00 3.318444379617515594e-01
1.610599462432737495e-04 9.370826992211087614e+00 9.035074820646519456e+00 3.357521715645690463e-01
1.624274935387773464e-04 9.100911711986416464e+00 8.761444643702590795e+00 3.394670682838253351e-01
1.638066525704638763e-04 8.841196511598919727e+00 8.498204641225809652e+00 3.429918703731094087e-01
1.651975219326693768e-04 8.591167216838378806e+00 8.244837788872510842e+00 3.463294279658687413e-01
1.666002010568859947e-04 8.350343715205518436e+00 8.000861028662157537e+00 3.494826865433600660e-01
1.680147902188714793e-04 8.118277090910176241e+00 7.765822415585557081e+00 3.524546753246187158e-01
1.694413905458164366e-04 7.894547053394335379e+00 7.539298556886343761e+00 3.552484965079917290e-01
1.708801040235751985e-04 7.678759624090671032e+00 7.320892308790489800e+00 3.578673153001819540e-01
1.723310335039553750e-04 7.470545050968059542e+00 7.110230700293647566e+00 3.603143506744119207e-01
1.737942827120711844e-04 7.269555924511261757e+00 6.906963057706853704e+00 3.625928668044081649e-01
1.752699562537591248e-04 7.075465472264268030e+00 6.710759307138828511e+00 3.647061651254400183e-01
1.767581596230548768e-04 6.887966012033492014e+00 6.521308435055772179e+00 3.666575769777190574e-01
1.782589992097363956e-04 6.706767546382305767e+00 6.338317089591164688e+00 3.684504567911419115e-01
1.797725823069280988e-04 6.531596483224411998e+00 6.161508307450758615e+00 3.700881757736536604e-01
1.812990171187725996e-04 6.362194469191422286e+00 5.990620353122918296e+00 3.715741160685039346e-01
1.828384127681646190e-04 6.198317324063393308e+00 5.825405658715036239e+00 3.729116653483572352e-01
1.843908793045534737e-04 6.039734065943012098e+00 5.665629854126319032e+00 3.741042118166939545e-01
1.859565277118092072e-04 5.886226018062632903e+00 5.511070878473496748e+00 3.751551395891360441e-01
1.875354699161569977e-04 5.737585989161423150e+00 5.361518164732030023e+00 3.760678244293929606e-01
1.891278187941794649e-04 5.593617520283699740e+00 5.216771890467353678e+00 3.768456298163465057e-01
1.907336881808845705e-04 5.454134191646984320e+00 5.076642288326477903e+00 3.774919033205057506e-01
1.923531928778451309e-04 5.318958983924797934e+00 4.940949010655203644e+00 3.780099732695937909e-01
1.939864486614042212e-04 5.187923688901762809e+00 4.809520543217302269e+00 3.784031456844607622e-01
1.956335722909536287e-04 5.060868364994314916e+00 4.682193663526504679e+00 3.786747014678096268e-01
1.972946815172789837e-04 4.937640833604358015e+00 4.558812939774933959e+00 3.788278938294238340e-01
1.989698950909794296e-04 4.818096212688865343e+00 4.439230266756175602e+00 3.788659459326895185e-01
2.006593327709554897e-04 4.702096484297989321e+00 4.323304435549777835e+00 3.787920487482111520e-01
2.023631153329709842e-04 4.589510093159589132e+00 4.210900734058315109e+00 3.786093591012740234e-01
2.040813645782878878e-04 4.480211573677753023e+00 4.101890575776995895e+00 3.783209979007571278e-01
2.058142033423722287e-04 4.374081202970072191e+00 3.996151154432158403e+00 3.779300485379139540e-01
2.075617555036771567e-04 4.271004677796536697e+00 3.893565122352363517e+00 3.774395554441730694e-01
2.093241459924971072e-04 4.170872813437709326e+00 3.794020290639900761e+00 3.768525227978083425e-01
2.111015007999006508e-04 4.073581262760972876e+00 3.697409349391012956e+00 3.761719133699600870e-01
2.128939469867357419e-04 3.979030253877334111e+00 3.603629606376246297e+00 3.754006475010877586e-01
2.147016126927147901e-04 3.887124344936300879e+00 3.512582742736814811e+00 3.745416021994854017e-01
2.165246271455738107e-04 3.797772194737874862e+00 3.424174584383866460e+00 3.735976103540084026e-01
2.183631206703112368e-04 3.710886347957614628e+00 3.338314887903976569e+00 3.725714600536383925e-01
2.202172246985055254e-04 3.626383033886726448e+00 3.254917139879767163e+00 3.714658940069595627e-01
2.220870717777093627e-04 3.544181977684434326e+00 3.173898368629394451e+00 3.702836090550398751e-01
2.239727955809271633e-04 3.464206223225355874e+00 3.095178967453756425e+00 3.690272557715997825e-01
2.258745309161693307e-04 3.386381966702732615e+00 3.018682528558015665e+00 3.676994381447170057e-01
2.277924137360914111e-04 3.310638400217911670e+00 2.944335686883257974e+00 3.663027133346539177e-01
2.297265811477113093e-04 3.236907564650628455e+00 2.872067973147906628e+00 3.648395915027214942e-01
2.316771714222126449e-04 3.165124211161556289e+00 2.801811675455173845e+00 3.633125357063822780e-01
2.336443240048281496e-04 3.095225670731500678e+00 2.733501708875412106e+00 3.617239618560880721e-01
2.356281795248089603e-04 3.027151731188571393e+00 2.667075492458970132e+00 3.600762387296012612e-01
2.376288798054788053e-04 2.960844521218204406e+00 2.602472833178402833e+00 3.583716880398016835e-01
2.396465678743711321e-04 2.896248400890227170e+00 2.539635816338013274e+00 3.566125845522142290e-01
2.416813879734558174e-04 2.833309858272795356e+00 2.478508702024092791e+00 3.548011562487025650e-01
2.437334855694490076e-04 2.771977411736195940e+00 2.419037827202202173e+00 3.529395845339934890e-01
2.458030073642142235e-04 2.712201517578961329e+00 2.361171513097086283e+00 3.510300044818749354e-01
2.478901013052478412e-04 2.653934482636596037e+00 2.304859977518491032e+00 3.490745051181050607e-01
2.499949165962579516e-04 2.597130381557768875e+00 2.250055251820540558e+00 3.470751297372280941e-01
2.521176037078285727e-04 2.541744978456314641e+00 2.196711102205644472e+00 3.450338762506703350e-01
2.542583143881778081e-04 2.487735652667956376e+00 2.144782955104333144e+00 3.429526975636231767e-01
2.564172016740064826e-04 2.435061328360359489e+00 2.094227826381980240e+00 3.408335019783793607e-01
2.585944199014370373e-04 2.383682407762780731e+00 2.045004254140866617e+00 3.386781536219140021e-01
2.607901247170488646e-04 2.333560707797802447e+00 1.997072234902170562e+00 3.364884728956317739e-01
2.630044730890029273e-04 2.284659399912985389e+00 1.950393162967659411e+00 3.342662369453258675e-01
2.652376233182656903e-04 2.236942952923775874e+00 1.904929772774275776e+00 3.320131801495003199e-01
2.674897350499234753e-04 2.190377078692175683e+00 1.860646084067852701e+00 3.297309946243231482e-01
2.697609692845975913e-04 2.144928680477124150e+00 1.817507349733552990e+00 3.274213307435713260e-01
2.720514883899520574e-04 2.100565803803790210e+00 1.775480006131758604e+00 3.250857976720318288e-01
2.743614561123018832e-04 2.057257589708759937e+00 1.734531625797854248e+00 3.227259639109055223e-01
2.766910375883200137e-04 2.014974230227604135e+00 1.694630872373751762e+00 3.203433578538524840e-01
2.790403993568407130e-04 1.973686925999971642e+00 1.655747457647573473e+00 3.179394683523979470e-01
2.814097093707674103e-04 1.933367845875151758e+00 1.617852100585665198e+00 3.155157452894866710e-01
2.837991370090776921e-04 1.893990088408766814e+00 1.580916488248707452e+00 3.130736001600595841e-01
2.862088530889325385e-04 1.855527645147870386e+00 1.544913238490287721e+00 3.106144066575827756e-01
2.886390298778888312e-04 1.817955365608264540e+00 1.509815864342739289e+00 3.081395012655253063e-01
2.910898411062126374e-04 1.781248923853834487e+00 1.475598740000978237e+00 3.056501838528563053e-01
2.935614619793010228e-04 1.745384786593040527e+00 1.442237068320372018e+00 3.031477182726686204e-01
2.960540691902052365e-04 1.710340182713080637e+00 1.409706849749969848e+00 3.006333329631107332e-01
2.985678409322643236e-04 1.676093074176816522e+00 1.377984852626967571e+00 2.981082215498488397e-01
3.011029569118418435e-04 1.642622128212202659e+00 1.347048584762867263e+00 2.955735434493355629e-01
3.036595983611750215e-04 1.609906690727930023e+00 1.316876266255726735e+00 2.930304244722032325e-01
3.062379480513287961e-04 1.577926760893086922e+00 1.287446803466932854e+00 2.904799574261541228e-01
3.088381903052628947e-04 1.546662966822053065e+00 1.258739764104306547e+00 2.879232027177464071e-01
3.114605110110096062e-04 1.516096542309371964e+00 1.230735353356844364e+00 2.853611889525276002e-01
3.141050976349605704e-04 1.486209304562499556e+00 1.203414391029497876e+00 2.827949135330015129e-01
3.167721392352710404e-04 1.456983632883151802e+00 1.176758289629211029e+00 2.802253432539407174e-01
3.194618264753729445e-04 1.428402448250962076e+00 1.150749033356355033e+00 2.776534148946070979e-01
3.221743516376075907e-04 1.400449193765511691e+00 1.125369157958055144e+00 2.750800358074566021e-01
3.249099086369691214e-04 1.373107815905454610e+00 1.100601731402503169e+00 2.725060845029513845e-01
3.276686930349699957e-04 1.346362746565505475e+00 1.076430335335391231e+00 2.699324112301141332e-01
3.304509020536190657e-04 1.320198885834424241e+00 1.052839047281920459e+00 2.673598385525037258e-01
3.332567345895216804e-04 1.294601585478929007e+00 1.029812423559627543e+00 2.647891619193016854e-01
3.360863912280994304e-04 1.269556633100469734e+00 1.007335482869239796e+00 2.622211502312299936e-01
3.389400742579278003e-04 1.245050236933558319e+00 9.853936905325092477e-01 2.596565464010490709e-01
3.418179876851997509e-04 1.221069011255910386e+00 9.639729433475200393e-01 2.570960679083902356e-01
3.447203372483074795e-04 1.197599962382367655e+00 9.430595550336496879e-01 2.545404073487181340e-01
3.476473304325529835e-04 1.174630475215862724e+00 9.226402422396455805e-01 2.519902329762171433e-01
3.505991764849781568e-04 1.152148300330252617e+00 9.027021110898183487e-01 2.494461892404341297e-01
3.535760864293265634e-04 1.130141541560954588e+00 8.832326442444483616e-01 2.469088973165061984e-01
3.565782730811265324e-04 1.108598644080740714e+00 8.642196884519004474e-01 2.443789556288404052e-01
3.596059510629062012e-04 1.087508382939015972e+00 8.456514425709090732e-01 2.418569403681069541e-01
3.626593368195374693e-04 1.066859852044130141e+00 8.275164460426913671e-01 2.393434060014387743e-01
3.657386486337086480e-04 1.046642453569226028e+00 8.098035677934951604e-01 2.368388857757308397e-01
3.688441066415282439e-04 1.026845887763142562e+00 7.925019955491831025e-01 2.343438922139595149e-01
3.719759328482631828e-04 1.007460143148737108e+00 7.756012255443001102e-01 2.318589176044370537e-01
3.751343511442106087e-04 9.884754870919248981e-01 7.590910526089815757e-01 2.293844344829433779e-01
3.783195873207011953e-04 9.698824567255375229e-01 7.429615606178545661e-01 2.269208961076829012e-01
3.815318690862432960e-04 9.516718502128066470e-01 7.272031132857892377e-01 2.244687369270174371e-01
3.847714260827992576e-04 9.338347183361165316e-01 7.118063452961677084e-01 2.220283730399489619e-01
3.880384899022031151e-04 9.163623563972539410e-01 6.967621537479311566e-01 2.196002026493229231e-01
3.913332941027180926e-04 8.992462964161002104e-01 6.820616899083629114e-01 2.171846065077372157e-01
3.946560742257306615e-04 8.824782996153308634e-01 6.676963512591777006e-01 2.147819483561531351e-01
3.980070678125921025e-04 8.660503491792018727e-01 6.536577738240022528e-01 2.123925753551995921e-01
4.013865144215971121e-04 8.499546432751686753e-01 6.399378247659813779e-01 2.100168185091874362e-01
4.047946556451125161e-04 8.341835883274861807e-01 6.265285952446484341e-01 2.076549930828377466e-01
4.082317351268451413e-04 8.187297925325517367e-01 6.134223935218003909e-01 2.053073990107512903e-01
4.116979985792630463e-04 8.035860596061161765e-01 6.006117383064790705e-01 2.029743212996370505e-01
4.151936938011582963e-04 7.887453827530399586e-01 5.880893523297024972e-01 2.006560304233374614e-01
4.187190706953627722e-04 7.742009388506082557e-01 5.758481561399276805e-01 1.983527827106805475e-01
4.222743812866149547e-04 7.599460828368694854e-01 5.638812621106688017e-01 1.960648207262007114e-01
4.258598797395738355e-04 7.459743422958579062e-01 5.521819686520820225e-01 1.937923736437758560e-01
4.294758223769920428e-04 7.322794122318575516e-01 5.407437546186342203e-01 1.915356576132232758e-01
4.331224676980369062e-04 7.188551500253055337e-01 5.295602739053917318e-01 1.892948761199138019e-01
4.368000763967733397e-04 7.056955705631611231e-01 5.186253502257083259e-01 1.870702203374527417e-01
4.405089113807974816e-04 6.927948415369782342e-01 5.079329720634832013e-01 1.848618694734950330e-01
4.442492377900347008e-04 6.801472789021189014e-01 4.974772877933715809e-01 1.826699911087473205e-01
4.480213230156912876e-04 6.677473424919201372e-01 4.872526009626897414e-01 1.804947415292304236e-01
4.518254367193711069e-04 6.555896317808211915e-01 4.772533657289574904e-01 1.783362660518636733e-01
4.556618508523549351e-04 6.436688817907513238e-01 4.674741824473094831e-01 1.761946993434418685e-01
4.595308396750383620e-04 6.319799591353379986e-01 4.579097934022576810e-01 1.740701657330803176e-01
4.634326797765424603e-04 6.205178581966630524e-01 4.485550786784690547e-01 1.719627795181939700e-01
4.673676500944825857e-04 6.092776974296096881e-01 4.394050521655141206e-01 1.698726452640955120e-01
4.713360319349134690e-04 5.982547157889478440e-01 4.304548576916691904e-01 1.677998580972786813e-01
4.753381089924353111e-04 5.874442692746152384e-01 4.216997652821401488e-01 1.657445039924751173e-01
4.793741673704788263e-04 5.768418275907402082e-01 4.131351675371844889e-01 1.637066600535557470e-01
4.834444956017547594e-04 5.664429709142261293e-01 4.047565761258620776e-01 1.616863947883640518e-01
4.875493846688825662e-04 5.562433867688176825e-01 3.965596183912606376e-01 1.596837683775571004e-01
4.916891280251933262e-04 5.462388670007812808e-01 3.885400340632421678e-01 1.576988329375391407e-01
4.958640216157055849e-04 5.364253048524860734e-01 3.806936720749135028e-01 1.557316327775726261e-01
5.000743638982855111e-04 5.267986921302916237e-01 3.730164874791463969e-01 1.537822046511452267e-01
5.043204558649792791e-04 5.173551164633429789e-01 3.655045384616606996e-01 1.518505780016823070e-01
5.086026010635351325e-04 5.080907586499573414e-01 3.581539834472734496e-01 1.499367752026838918e-01
5.129211056190989201e-04 4.990018900884778952e-01 3.509610782961014586e-01 1.480408117923764089e-01
5.172762782561033789e-04 4.900848702895304609e-01 3.439221735865731766e-01 1.461626967029572566e-01
5.216684303203342503e-04 4.813361444668123879e-01 3.370337119822877092e-01 1.443024324845247341e-01
5.260978758011897096e-04 4.727522412035873867e-01 3.302922256798159761e-01 1.424600155237714383e-01
5.305649313541288808e-04 4.643297701922159959e-01 3.236943339346876614e-01 1.406354362575283345e-01
5.350699163233052068e-04 4.560654200441610628e-01 3.172367406629131303e-01 1.388286793812479325e-01
5.396131527644003984e-04 4.479559561679528068e-01 3.109162321154504416e-01 1.370397240525024207e-01
5.441949654676437806e-04 4.399982187127794431e-01 3.047296746231885067e-01 1.352685440895909363e-01
5.488156819810328674e-04 4.321891205753774501e-01 2.986740124100457083e-01 1.335151081653316862e-01
5.534756326337506114e-04 4.245256454680426117e-01 2.927462654719165669e-01 1.317793799961260726e-01
5.581751505597790011e-04 4.170048460456451944e-01 2.869435275192674939e-01 1.300613185263777005e-01
5.629145717217131284e-04 4.096238420896154975e-01 2.812629639812664895e-01 1.283608781083490635e-01
5.676942349347799529e-04 4.023798187469375121e-01 2.757018100694022533e-01 1.266780086775352865e-01
5.725144818910616554e-04 3.952700248222752455e-01 2.702573688986367739e-01 1.250126559236384438e-01
5.773756571839185926e-04 3.882917711214300960e-01 2.649270096642054040e-01 1.233647614572247198e-01
5.822781083326284421e-04 3.814424288443670763e-01 2.597081658722272812e-01 1.217342629721397534e-01
5.872221858072258164e-04 3.747194280261576527e-01 2.545983336223906490e-01 1.201210944037670036e-01
